Date,Open,High,Low,Close,Volume
2024-04-11,135.82826338990424,136.58904095573232,135.03822629329608,135.70147705078125,265300.0
2024-04-12,134.765143986109,135.52592164547036,132.60961224550994,133.8190460205078,299200.0
2024-04-15,135.19428791765284,136.3647138047215,134.43351034691958,134.7943878173828,319600.0
2024-04-16,134.39450046903713,135.95507838838475,133.9751038968422,135.17478942871094,281700.0
2024-04-17,135.45766906073504,136.04287469456995,134.940730720265,134.98948669433594,565400.0
2024-04-18,134.97970257950664,136.0038307698305,134.81389361654325,135.6819610595703,246600.0
2024-04-19,135.63321212465888,136.47202017340777,135.35036499692032,135.90631103515625,276600.0
2024-04-22,136.1111531142452,137.67171631084506,135.8185428640154,136.8621826171875,298800.0
2024-04-23,136.3257243613658,137.68147071511345,136.08188498203873,136.69635009765625,417200.0
2024-04-24,136.90177371391562,137.83107896631418,136.598528150901,136.96046447753906,559200.0
2024-04-25,136.79417905028183,138.17347180247913,135.8942191136086,137.12677001953125,694400.0
2024-04-26,138.907142184169,145.27534452627617,138.80931428247655,140.2081756591797,489500.0
2024-04-29,141.7439515679202,144.79600552411128,141.2254966026468,143.1917266845703,676700.0
2024-04-30,142.56568461683193,142.9178441580888,140.92226844881924,141.2353057861328,585100.0
2024-05-01,141.83201133324172,144.00365921492568,141.43093786715573,142.21351623535156,359600.0
2024-05-02,142.58524158159844,143.53411550860667,142.12547731072053,142.74176025390625,356500.0
2024-05-03,143.905819193012,143.92538775533887,141.68525755175847,143.6123504638672,303300.0
2024-05-06,144.54165813146784,145.83291459114125,143.95473558961254,145.7937774658203,260200.0
2024-05-07,145.0894683068579,147.10459732337995,145.0894683068579,146.45896911621094,392900.0
2024-05-08,146.4589742681547,147.58392033494945,146.22419629553286,147.5056610107422,223500.0
2024-05-09,147.71107982747785,148.4251755704198,145.39270540399693,145.83290100097656,299100.0
2024-05-10,145.70575558119742,145.75466952941505,144.86448642175523,145.2557830810547,186300.0
2024-05-13,145.2949050252629,146.2242103339786,143.66128065750254,144.64927673339844,167500.0
2024-05-14,145.06991603597936,145.07969285484432,144.257992276957,144.67861938476562,137600.0
2024-05-15,144.73734046927026,145.10905366940162,143.5732570635824,144.0721435546875,211100.0
2024-05-16,144.16016631041785,144.67862131957352,143.24063782581982,144.3264617919922,235500.0
2024-05-17,144.62973103647835,144.9427534541068,143.9254119387617,144.45364379882812,169500.0
2024-05-20,144.37536485042523,145.1775117408084,143.837341317417,144.94273376464844,163400.0
2024-05-21,144.717755389516,145.4416280673695,143.88626307277843,145.3535919189453,280400.0
2024-05-22,144.84493596298873,145.58837724231438,144.25799842437684,145.5492401123047,283300.0
2024-05-23,145.42209205315984,145.7057690968296,144.34604479832407,144.5025634765625,171700.0
2024-05-24,145.24600690781847,145.58838965560824,144.15040599719987,144.864501953125,162300.0
2024-05-28,144.40467902360774,144.56119764055504,142.64389682547989,143.51451110839844,318400.0
2024-05-29,142.4776120748706,143.50474515935326,141.36244284994527,141.6852569580078,229700.0
2024-05-30,141.96895892606543,143.77865551127988,141.8417856521232,142.9569549560547,328100.0
2024-05-31,142.9080336791022,144.61014039312926,142.74173821286894,144.4731903076172,358900.0
2024-06-03,145.26554380959303,145.26554380959303,143.09389610196075,144.93295288085938,266200.0
2024-06-04,144.4340488422392,145.15793637330214,143.5047436523007,144.96229553222656,287900.0
2024-06-05,144.50255553730506,144.97209661978007,143.87649578519105,144.6981964111328,229200.0
2024-06-06,144.7862212470873,144.7862212470873,142.2330684881502,142.7808837890625,197600.0
2024-06-07,142.595015935118,143.14281629493723,142.281978628684,142.3798065185547,179100.0
2024-06-10,141.67548883362142,142.63413947229168,140.85378828618974,142.41893005371094,125800.0
2024-06-11,141.7537411225742,142.56566481118944,141.20594078481926,142.3308868408203,147700.0
2024-06-12,143.05477521985793,143.1232427992556,140.93204143549357,142.65370178222656,221300.0
2024-06-13,142.7123925435502,143.3384522084022,141.86134665147762,142.65370178222656,232400.0
2024-06-14,141.92981994909997,142.21351187551372,140.5505272966644,141.59722900390625,141500.0
2024-06-17,141.71460051017326,143.48517474628758,141.42114671248308,143.14280700683594,303800.0
2024-06-18,143.28954725443802,144.47319907900086,143.27977043575066,143.49497985839844,219900.0
2024-06-20,143.46564765792573,144.3166936815853,142.49720516702743,142.6341552734375,199900.0
2024-06-21,142.6928388933288,143.93518153479198,142.14503849513946,143.65150451660156,444100.0
2024-06-24,144.01344742154828,145.0014435470762,143.4754238179669,143.5243377685547,182900.0
2024-06-25,143.59280533877137,143.60259708475283,141.35268969599872,141.70484924316406,194500.0
2024-06-26,141.10814216315063,141.63637404798098,139.84624576100757,140.5799102783203,192400.0
2024-06-27,140.7363739013672,140.74616564506272,139.17123233325364,140.7363739013672,377300.0
2024-06-28,140.64836976622286,141.17661654705415,137.03873816082947,137.74305725097656,435100.0
2024-07-01,138.30064553329024,138.39845850468294,135.3757645347683,135.52249145507812,306400.0
2024-07-02,135.46378571706094,137.43979260870313,134.75946672452395,137.3419647216797,259400.0
2024-07-03,137.81152831067402,138.32019155737456,137.50828274109926,138.1441192626953,143300.0
2024-07-05,137.91915154947608,138.35934727174964,136.68658561537885,137.8311004638672,207000.0
2024-07-08,138.56474550287118,139.3962378042094,138.41801859154825,138.42779541015625,249300.0
2024-07-09,137.79195401961266,138.1930274649659,136.7061301349004,136.98980712890625,238400.0
2024-07-10,137.68435364407958,138.54519132431884,137.50828135118005,138.21258544921875,142000.0
2024-07-11,138.12454847030526,140.1788147670624,137.6843528142689,138.9951629638672,244500.0
2024-07-12,140.28642803925482,142.32112589674372,140.28642803925482,141.4407196044922,263900.0
2024-07-15,141.60698713315355,142.51673862957415,140.02227701695838,140.3059539794922,319900.0
2024-07-16,140.71683443818233,142.1352492580944,140.71683443818233,141.41136169433594,178800.0
2024-07-17,141.19617102471588,142.5950323938379,141.19617102471588,141.70484924316406,242300.0
2024-07-18,141.46029340871593,144.04279176071282,141.45051658924618,143.0939178466797,434200.0
2024-07-19,143.3971432468501,143.3971432468501,141.50918743057153,142.7613067626953,251200.0
2024-07-22,142.81024017371695,144.3460367042907,142.08635252228743,143.98410034179688,235700.0
2024-07-23,144.64927385495375,145.27533356981945,142.49719451800544,142.859130859375,234500.0
2024-07-24,142.88848966890302,143.43629004785507,140.7657408108026,141.00051879882812,250600.0
2024-07-25,140.15662064812102,141.3537868323138,138.57675478033786,138.84170532226562,558100.0
2024-07-26,140.45099043675484,148.45824547833135,139.68559116787756,143.9149169921875,562800.0
2024-07-29,143.83640338208556,145.57327775335992,142.45279134101645,145.0335693359375,390900.0
2024-07-30,144.6214530331883,145.13170927031027,142.68832486399208,143.02195739746094,411000.0
2024-07-31,143.75791610697183,146.0639364501805,142.6883215533924,144.2289276123047,280600.0
2024-08-01,144.13082869961707,146.7410296810768,142.707956599424,144.27801513671875,335300.0
2024-08-02,143.8364454066084,144.24858241673073,141.0594130775853,142.96310424804688,213500.0
2024-08-05,140.7453719354448,140.7453719354448,136.86930822483086,138.04684448242188,448500.0
2024-08-06,138.68469153261674,143.3555919877559,138.4688081318192,142.21730041503906,476000.0
2024-08-07,143.2770808419969,144.50368421019382,140.7846293860225,140.91220092773438,353600.0
2024-08-08,141.75610824637394,143.42428587487734,141.75610824637394,142.83551025390625,268600.0
2024-08-09,142.68834053710287,142.68834053710287,140.78464944274444,141.2556610107422,263200.0
2024-08-12,141.2752971107165,141.48135813006314,140.09776065202755,140.60801696777344,221100.0
2024-08-13,140.82389704957893,142.58040174400242,140.42158245888365,141.6678009033203,212000.0
2024-08-14,141.4322792863365,142.09954433022483,140.8042589619534,141.20657348632812,115700.0
2024-08-15,142.28601911453765,144.5822174846139,142.28601911453765,144.25839233398438,277500.0
2024-08-16,143.37521760611233,144.09154979316477,142.88457625025995,143.9738006591797,250600.0
2024-08-19,143.58130365158,144.96490099267191,143.18878155540853,144.21913146972656,191200.0
2024-08-20,144.22894469422167,145.53405264163237,144.22894469422167,145.33779907226562,387200.0
2024-08-21,145.39666627862889,146.77047114096155,144.6999638967002,146.5349578857422,267300.0
2024-08-22,146.770454944853,147.58490637792332,145.88729156512758,146.20130920410156,200400.0
2024-08-23,146.8588070546044,147.7125184131979,146.64292361191812,147.62420654296875,221400.0
2024-08-26,147.859667224301,149.81242515034424,147.32978116462516,147.3494110107422,235500.0
2024-08-27,147.20220532969972,148.70356659035883,147.03538907553593,148.36993408203125,208300.0
2024-08-28,148.1050148789082,149.12555743833656,148.1050148789082,148.70359802246094,249000.0
2024-08-29,149.69468380657958,150.04794618913405,148.379768538866,149.4297332763672,187100.0
2024-08-30,149.351232808882,150.56802881944182,148.80171685997968,150.3227081298828,178500.0
2024-09-03,149.26292143881992,149.5278719768961,146.92746367521593,147.23165893554688,362400.0
2024-09-04,146.79991305774996,148.07556872083794,146.79991305774996,147.90875244140625,175800.0
2024-09-05,148.25220343795263,148.9194685377967,147.14334911082645,147.89894104003906,200600.0
2024-09-06,147.5653122082446,150.2540174965452,147.5653122082446,149.5278778076172,319100.0
2024-09-09,149.71430053073706,150.19511944457807,148.60544634901655,149.066650390625,241500.0
2024-09-10,149.027410959184,149.93018931971082,148.60546655104966,148.6741485595703,158100.0
2024-09-11,147.96762598087645,148.05595281199558,145.84806652457317,148.01669311523438,178000.0
2024-09-12,148.06574300141364,149.16477481170668,147.16296473250355,149.11572265625,200400.0
2024-09-13,149.34142142402513,150.14606547845202,149.05684104667466,149.4297332763672,138600.0
2024-09-16,150.175486478919,150.30305801170454,149.22365610712973,150.12643432617188,182900.0
2024-09-17,151.1175559932651,152.65817722526162,149.02741877154858,150.16571044921875,259900.0
2024-09-18,150.88202856716077,152.5796584864247,149.85169366969927,150.2049560546875,214200.0
2024-09-19,152.11847053144703,155.83752591863228,152.11847053144703,153.96327209472656,412400.0
2024-09-20,153.38431316379166,153.38431316379166,151.5885638302304,152.99180603027344,663300.0
2024-09-23,153.24692402795387,153.97307864741222,151.84369689396294,153.04086303710938,315800.0
2024-09-24,153.25672927528666,154.1398927144178,153.1095428553579,153.6983184814453,246200.0
2024-09-25,154.3557850842914,154.9151084857173,152.95254291560093,154.1987762451172,284100.0
2024-09-26,154.9837910802746,156.0828229060941,154.74827784337654,155.41555786132812,371600.0
2024-09-27,155.7099344145292,158.52622599531733,155.29779746999125,156.8972930908203,354300.0
2024-09-30,156.30851747856306,157.41737174073054,155.95525510134422,157.19168090820312,289800.0
2024-10-01,157.53513824390689,157.53513824390689,156.0730364165075,156.97581481933594,192200.0
2024-10-02,156.86784986227633,157.11317053233662,155.00341875909234,155.77862548828125,186900.0
2024-10-03,155.0328722416222,157.45664191294162,153.7081344955956,155.965087890625,367000.0
2024-10-04,156.9463662323992,158.4477276497133,156.34778315291413,157.5743865966797,350500.0
2024-10-07,156.4066673148656,156.65198801866413,155.05249223847767,155.7197723388672,223300.0
2024-10-08,155.3174498198159,156.0436045262685,154.15954323261684,155.7001495361328,205900.0
2024-10-09,155.38615353097182,157.05433146984137,155.16044768280136,156.71087646484375,152600.0
2024-10-10,155.0917386478585,156.39684647702796,155.0917386478585,156.23983764648438,168500.0
2024-10-11,157.92767718959857,158.88933026874724,157.34872385431848,158.52626037597656,194400.0
2024-10-14,161.9018498428799,164.61999233895074,160.40048840049982,164.0606689453125,469700.0
2024-10-15,164.1882359553576,166.48443398334234,163.37376948084616,165.52276611328125,397300.0
2024-10-16,165.54239028642257,166.033031641731,162.81442554876264,162.9321746826172,330000.0
2024-10-17,163.85458770692577,165.16951795794049,163.40320603158116,164.74755859375,238200.0
2024-10-18,165.93492848190388,165.93492848190388,164.63962799086934,165.47372436523438,171500.0
2024-10-21,165.31669544953982,165.33632529576852,163.1873138158825,163.2167510986328,217900.0
2024-10-22,162.61817008424393,163.25599784935144,161.72519923454482,162.70648193359375,228500.0
2024-10-23,163.39337750196967,164.8358642733739,163.04993753979795,164.5120391845703,318100.0
2024-10-24,165.61406215698588,165.6238959901865,163.47893428707053,163.8725128173828,547300.0
2024-10-25,166.20439865201706,167.11945554985263,161.9636896762729,166.19456481933594,518900.0
2024-10-28,167.1686425080967,168.65437700934277,166.0469700108999,166.3815155029297,350000.0
2024-10-29,166.31262693046665,166.76523845233498,164.94497354589777,165.98793029785156,338100.0
2024-10-30,165.64357635714168,167.4638263639047,165.41726307531505,166.31263732910156,290300.0
2024-10-31,166.37167045155186,167.5425421666506,165.1614483906913,165.2106475830078,329900.0
2024-11-01,165.39760088847163,168.2411401404729,164.92530664304553,166.68653869628906,316300.0
2024-11-04,166.902978323976,167.82786898356716,165.4762769799135,165.55499267578125,191800.0
2024-11-05,165.04339079182503,167.6212664555782,165.04339079182503,167.5720672607422,206200.0
2024-11-06,172.33425000176234,172.33425000176234,169.37264472673408,170.37625122070312,264100.0
2024-11-07,171.39951070038683,172.63926420836194,170.7501174355889,171.9013214111328,412300.0
2024-11-08,171.89147621002377,174.98099618606105,171.6848606299699,172.93443298339844,309200.0
2024-11-11,173.48544125861645,175.16794244855342,173.07218007543688,173.3181610107422,189100.0
2024-11-12,173.8101212713204,174.39064768351193,172.1374539294353,172.87539672851562,179800.0
2024-11-13,172.6786346435547,173.55432626428455,172.2358719163967,172.6786346435547,168400.0
2024-11-14,172.3342401368319,172.96395074115134,171.11418428604836,171.30113220214844,198200.0
2024-11-15,170.18929849303566,170.96659167816782,163.498613744456,163.8134765625,620500.0
2024-11-18,163.71507377564353,165.1220925590242,161.68819323282284,164.01025390625,384400.0
2024-11-19,163.7445787425749,164.97448335548347,163.5281143296243,164.21685791015625,287600.0
2024-11-20,164.3152721102554,166.2240866554903,162.98696899498788,166.0174560546875,221800.0
2024-11-21,165.97809989223595,167.49333586223904,165.04337533185526,167.1489715576172,205100.0
2024-11-22,167.44415655429708,169.30378707670408,167.44415655429708,168.75277709960938,241600.0
2024-11-25,169.2841049367157,171.2224361628456,168.97909093899247,169.72686767578125,270100.0
2024-11-26,170.08107094911196,170.08107094911196,168.40840346938074,169.2742462158203,140300.0
2024-11-27,169.89411375858853,171.08466811356843,168.76260744050867,168.96922302246094,167200.0
2024-11-29,169.8153966210403,170.7009370052356,169.32343474542677,170.17945861816406,117300.0
2024-12-02,170.19913044726937,170.32704534237342,168.0935341686711,169.982666015625,170900.0
2024-12-03,170.6615714264747,170.6615714264747,168.33951077604863,169.62844848632812,160100.0
2024-12-04,169.12664033952018,170.11056401710505,168.2804653762579,169.8153839111328,173400.0
2024-12-05,169.2447091264887,169.66780412173642,167.78850626377746,168.34934997558594,245000.0
2024-12-06,168.84133731004735,169.87444533346505,168.10339442847106,168.3985595703125,209200.0
2024-12-09,168.80195225603495,170.68125017844324,167.4933318970876,168.04432678222656,301700.0
2024-12-10,167.97546663297192,168.61501107586,165.48614070458325,168.16241455078125,287000.0
2024-12-11,169.11682172045118,171.30113368225736,168.98890682654377,169.53990173339844,418600.0
2024-12-12,168.91020804318094,169.82526504432033,168.03451640418018,168.8806915283203,178300.0
2024-12-13,168.16241388859282,168.25096342400062,167.0899405904716,167.4638214111328,153200.0
2024-12-16,167.40479346088532,168.1820866510521,164.89578478723115,164.93515014648438,236100.0
2024-12-17,164.2168715592174,164.22672040556904,160.22214344662177,160.46812438964844,511900.0
2024-12-18,161.05850962083514,161.77676988202063,155.37143053769427,155.66661071777344,468600.0
2024-12-19,155.9617658133815,158.9725854395851,155.68626833336077,156.31597900390625,404700.0
2024-12-20,156.1683816857253,157.21133847783258,154.93847697550726,155.63705444335938,730200.0
2024-12-23,154.64330027166915,156.3454842245821,154.43668468332243,155.9716033935547,194900.0
2024-12-24,156.22741004658738,156.85712063888403,155.38123503067456,156.7882537841797,100500.0
2024-12-26,155.87320014251569,157.0637544971703,155.87320014251569,156.29629516601562,164500.0
2024-12-27,155.28284707418268,157.01454739843217,155.07621648920878,155.60752868652344,145000.0
2024-12-30,154.47603655450243,154.9581646212153,152.50818895508203,154.2103729248047,221700.0
2024-12-31,154.75154672385207,155.70595408901536,153.66922444990806,154.57444763183594,317100.0
2025-01-02,155.11558622782664,155.56819779682613,150.983109132969,151.68170166015625,239400.0
2025-01-03,151.56361721810913,153.2166170273575,150.41242816102755,153.00015258789062,250700.0
2025-01-06,151.52426364018712,152.15397426516537,149.00542114027417,150.4616241455078,369000.0
2025-01-07,153.4134004022987,153.55114913672944,150.14678112287606,150.9634246826172,361200.0
2025-01-08,150.43210592610473,151.78007669861915,149.64496390044135,151.67184448242188,228600.0
2025-01-10,150.2648483292892,151.81944978034818,150.12709959380228,150.9831085205078,350800.0
2025-01-13,150.47147260654185,152.21302208769376,150.47147260654185,151.41604614257812,349300.0
2025-01-14,152.32123242972682,152.9509430254435,151.01261204838892,152.12445068359375,196900.0
2025-01-15,153.6101837863161,154.39732585429968,151.69153531737786,153.05918884277344,206100.0
2025-01-16,153.38387849846134,154.64329974427918,152.81320090059305,153.89552307128906,346300.0
2025-01-17,154.4465310274226,155.4107722159494,153.17726082796082,153.58067321777344,231900.0
2025-01-21,154.20054018392875,157.68362385364128,154.20054018392875,157.2605438232422,270900.0
2025-01-22,156.77842023212838,158.16575644241834,155.79449639733883,156.5127716064453,280000.0
2025-01-23,155.9125691247179,157.24085722252315,155.19429395404214,157.0539093017578,149800.0
2025-01-24,157.08341495914098,157.890239611219,154.69248754022158,155.755126953125,329600.0
2025-01-27,155.70595177968644,156.3651789682253,154.1316675888415,155.91258239746094,317000.0
2025-01-28,155.03687327924555,157.7721801170213,155.03687327924555,155.87319946289062,204300.0
2025-01-29,156.22740987357176,156.2667752306319,154.10213099686746,154.58425903320312,265800.0
2025-01-30,155.28286139023555,156.1290214456585,154.06279047284826,155.58787536621094,274200.0
2025-01-31,155.3615542633782,156.82760605708947,154.2398817878796,154.6236114501953,834100.0
2025-02-03,152.09494007825938,154.23005288435436,151.66201121186492,153.47242736816406,364600.0
2025-02-04,153.58066175061302,155.91257135685308,153.58066175061302,155.16477966308594,302400.0
2025-02-05,156.18111830402617,157.54282355753207,155.6877485810399,156.22059631347656,262600.0
2025-02-06,157.72042754941586,157.72042754941586,153.30970107401376,154.37538146972656,446600.0
2025-02-07,155.52986104781684,155.80614687821054,140.1564592271462,141.28134155273438,1221500.0
2025-02-10,142.34703590173154,142.68253877711308,139.03159055496985,141.38003540039062,621900.0
2025-02-11,140.38342851707733,141.1728231038295,138.40007254760076,140.4031524658203,377300.0
2025-02-12,139.10066826882291,141.58725602014744,138.07445075906045,139.82098388671875,423500.0
2025-02-13,140.8570462749457,141.87338663024207,139.5841591015714,140.8767852783203,665900.0
2025-02-14,141.78459078054618,143.38310383541634,140.8274523311255,142.8699951171875,512800.0
2025-02-18,142.870005422231,145.3368541695041,141.99180787045978,144.9520263671875,489600.0
2025-02-19,144.20208952401626,145.5341936831115,143.67911886752944,145.09014892578125,331000.0
2025-02-20,145.0211024557617,145.46513221009104,143.9850229913602,144.7349395751953,283100.0
2025-02-21,145.08031252658017,145.43553936119346,143.2745773720002,144.3994598388672,451900.0
2025-02-24,144.24155654675204,145.33683786996338,142.4456986894968,143.6791229248047,353300.0
2025-02-25,143.94556191982593,146.3630706640838,143.78767998754833,145.7512969970703,336700.0
2025-02-26,144.70532706157428,147.2017765403377,144.67572608407497,144.69546508789062,735600.0
2025-02-27,144.2909024211125,145.22830186694557,143.4324439363373,143.69886779785156,262800.0
2025-02-28,144.22184344398863,145.00136099447968,142.7121332709692,144.80401611328125,348700.0
2025-03-03,145.02109923466546,146.86629720163523,143.7580739339178,144.64613342285156,394100.0
2025-03-04,143.61005592009485,145.9881016576862,143.21536615445163,144.0047607421875,490100.0
2025-03-05,144.11329675818794,146.87617017338948,144.11329675818794,146.4716033935547,445100.0
2025-03-06,145.603284319122,149.49104052124792,145.10991454842485,149.1456756591797,471700.0
2025-03-07,148.5141409364155,151.32635423503427,147.2017757341566,150.75404357910156,480200.0
2025-03-10,150.0534734133287,151.95787329966407,148.24773843682507,148.5733642578125,391100.0
2025-03-11,148.34641815242486,148.56350205474928,145.31713560781648,145.9289093017578,304000.0
2025-03-12,146.27425230822007,146.27425230822007,143.62978291883215,144.0935516357422,299700.0
2025-03-13,144.4685375765296,145.24805517702276,141.85366879945948,142.8404083251953,238400.0
2025-03-14,143.30414962162507,144.94214053373426,142.6232970704202,144.71519470214844,223600.0
2025-03-17,144.56719705134603,146.0374443096502,143.92582240634974,145.8795623779297,225200.0
2025-03-18,145.43554311698776,145.57368605310205,143.8468918234482,144.36000061035156,219900.0
2025-03-19,144.39944743753657,145.5046058594481,143.54098893446837,145.0309600830078,279600.0
2025-03-20,144.19224217799055,145.46512945717194,141.82405843896925,143.27456665039062,332800.0
2025-03-21,142.09049403408983,143.53114039010703,140.47224178762627,142.89962768554688,601900.0
2025-03-24,143.817270903968,146.21504047479127,142.98841340218578,146.02757263183594,463800.0
2025-03-25,146.5209599792752,147.25113760406427,143.99489410489926,145.2579345703125,325200.0
2025-03-26,145.10004043414855,146.72815451865972,144.35998584001632,146.5900115966797,630400.0
2025-03-27,146.31373410398328,147.90238532565513,145.08030971002844,147.3695526123047,312700.0
2025-03-28,147.3103187509674,148.0109103514683,143.82712986521204,144.9816131591797,239800.0
2025-03-31,144.63626533277775,147.11297584539574,144.16263462913676,146.4123992919922,372500.0
2025-04-01,146.90576464125385,148.0405089128489,145.4256555618961,147.1228485107422,240000.0
2025-04-02,146.03742513786432,149.12592414972164,146.03742513786432,148.53387451171875,247600.0
2025-04-03,144.81387146268975,148.0602525772194,144.51786168265852,146.69854736328125,352900.0
2025-04-04,143.2943120074954,145.99798366938302,138.18299354627644,138.32113647460938,531600.0
2025-04-07,134.53204819675787,140.23540080963647,129.11485844577496,132.8644561767578,629900.0
2025-04-08,135.55827586465514,137.46267585200042,129.5391589570541,131.88760375976562,473800.0
2025-04-09,131.41396671142266,142.50492473025037,129.57864559326484,141.84381103515625,491800.0
2025-04-10,138.1435312694075,141.46883859689996,135.74576148947023,138.89344787597656,309000.0
2025-04-11,139.00197920039048,142.7910700685125,137.8869738787498,142.1990203857422,203000.0
2025-04-14,143.8666275197805,144.4586622081674,141.88327141409073,143.85675048828125,249300.0
2025-04-15,144.1626568560363,144.5968096183829,141.86355185664104,142.0312957763672,250700.0
2025-04-16,142.1496720504915,143.88634298780354,140.6794400168647,143.07720947265625,307700.0
2025-04-17,143.4719025184702,143.827129304186,138.84410738694922,141.9227294921875,390600.0
2025-04-21,141.39976942061477,142.13982402499016,139.2289455924035,140.68931579589844,291600.0
2025-04-22,142.5838614223611,144.87310434841834,141.68592484068608,144.08370971679688,217800.0
2025-04-23,145.90917104553122,147.3399554245133,145.26779636674308,146.0867919921875,537000.0
2025-04-24,145.96836437930722,149.98440129908244,143.53113171013078,149.45156860351562,424500.0
2025-04-25,148.84964599868292,150.9711297072843,145.61314193888578,147.0833740234375,220500.0
2025-04-28,147.81356949185763,149.02725477385636,146.3137213438059,147.7148895263672,235200.0
2025-04-29,147.7740980537582,149.9646608882986,147.03404344902023,148.30694580078125,359900.0
2025-04-30,147.09325788652058,148.0010563789797,145.25792189668277,147.96157836914062,556200.0
2025-05-01,146.92238394801444,148.98098168406787,145.44772634078012,146.75413513183594,445300.0
2025-05-02,151.41566994485422,151.4255616037469,146.2691681880173,150.43585205078125,431600.0
2025-05-05,149.87173036746051,151.6433191608006,149.3274021220667,149.9212188720703,267600.0
2025-05-06,148.70385505343256,150.47542844556375,147.8823943414243,149.36695861816406,312000.0
2025-05-07,150.31708590149762,151.57400611169496,149.0700422480403,149.83212280273438,318400.0
2025-05-08,150.2280090768683,152.9794155767693,149.68368089445295,151.7818603515625,302500.0
2025-05-09,152.3262040766549,152.71219020623604,151.3661845822508,151.74227905273438,231600.0
2025-05-12,154.18684266065333,154.97861331336065,152.1183533455545,153.9196319580078,352500.0
2025-05-13,154.70149791577734,154.70149791577734,151.6235005998346,152.05897521972656,339400.0
2025-05-14,152.03917218350202,152.03917218350202,149.4164479866586,150.91090393066406,350100.0
2025-05-15,150.78226337253412,153.88004414664277,150.78226337253412,153.35549926757812,278100.0
2025-05-16,153.58313194705545,155.5328611112219,152.99920689429524,155.39430236816406,278600.0
2025-05-19,154.75099115410438,156.71061190187558,154.70150265455177,156.4532928466797,185400.0
2025-05-20,158.61084438734758,158.61084438734758,156.28503604489993,156.89865112304688,388100.0
2025-05-21,155.24584191636762,156.02770582263278,154.2264422794775,154.84005737304688,319800.0
2025-05-22,154.75098526112157,155.64171781206997,153.9592146037401,155.03799438476562,278900.0
2025-05-23,153.52374279798673,154.57283251997325,152.67259196852737,154.33531188964844,260500.0
2025-05-27,155.414094045831,156.80958817721682,155.07759641325802,156.532470703125,352800.0
2025-05-28,156.5324623428064,157.20545757200804,155.64171470785442,155.7802734375,364400.0
2025-05-29,156.20587454930651,157.03722702384349,155.2062732479064,156.7007293701172,232100.0
2025-05-30,156.61164696065873,157.14608348083826,154.9291286191898,156.76998901367188,335100.0
2025-06-02,155.9188406286622,157.43311018008114,153.66230399382138,155.2953338623047,349600.0
2025-06-03,154.57282948083264,155.819873172597,154.39468901159154,154.65200805664062,397800.0
2025-06-04,154.87966472871315,154.9093548093361,148.74345296929266,148.8622283935547,831900.0
2025-06-05,150.020182784306,151.76206624139414,147.51621870771746,150.9208221435547,482400.0
2025-06-06,152.78146585654446,152.89033451642794,150.6437046015681,151.7323760986328,264700.0
2025-06-09,151.1385562627151,151.6037058706287,149.8024422920471,150.03997802734375,388400.0
2025-06-10,150.59420050272004,151.4255528547531,149.30757513784886,150.96038818359375,323500.0
2025-06-11,151.4255623288697,152.009487343491,150.0399749887904,150.35667419433594,380800.0
2025-06-12,149.85192452053215,153.02888367516888,149.85192452053215,152.7616729736328,337200.0
2025-06-13,151.42556949421294,152.13816161762142,149.17892446341756,149.60450744628906,361200.0
2025-06-16,149.6836620898465,151.32656829330398,149.5648866870926,150.1290283203125,346200.0
2025-06-17,149.10963397374292,149.70345060105046,147.5953796765448,147.91207885742188,379700.0
2025-06-18,147.5854820344273,149.17891500072886,147.5854820344273,148.15951538085938,383200.0
2025-06-20,148.74343491461926,149.21850635046175,147.45682463907613,148.7533416748047,570500.0
2025-06-23,147.95168891304158,152.35589347493396,147.95168891304158,152.20742797851562,356500.0
2025-06-24,152.97939928321904,152.97939928321904,151.60368862890812,152.28659057617188,246600.0
2025-06-25,152.2767059703511,152.93980953052548,151.1979262277585,152.34597778320312,264700.0
2025-06-26,152.93980831973192,153.9790063184346,151.5443142958103,152.89031982421875,658200.0
2025-06-27,153.06848600660535,154.5035618654326,152.64290303779003,154.216552734375,643100.0
2025-06-30,154.42437370138657,154.8895383794215,153.01898800881426,154.82025146484375,315500.0
2025-07-01,154.82025066701402,158.1555819691161,154.35510109314475,157.3737030029297,338300.0
2025-07-02,157.3836168741782,158.87807285808572,157.0174140714642,158.6702423095703,293500.0
2025-07-03,158.94735300202996,159.69952679136213,158.17538079404545,159.3828125,235100.0
2025-07-07,159.29375839991914,160.69914423117854,158.8978805973957,159.3036651611328,313900.0
2025-07-08,159.2442591859285,160.906979068561,158.20507624877348,158.40301513671875,342700.0
2025-07-09,158.28422732458975,158.36340589391986,156.47307229507223,158.08628845214844,252800.0
2025-07-10,157.55188026598236,158.7098387344668,156.7007293701172,156.7007293701172,361600.0
2025-07-11,156.92834315017365,156.92834315017365,155.01821097581862,156.27513122558594,292000.0
2025-07-14,155.52296818339582,157.30444850944824,155.0776018773253,155.9386444091797,276600.0
2025-07-15,156.1168011741537,156.37412023917577,152.4845686744815,152.57363891601562,254200.0
2025-07-16,152.3361030888639,154.0087147650407,151.96991536157202,153.38519287109375,261900.0
2025-07-17,153.1476587868325,154.8004718970373,152.920014720651,154.42437744140625,397700.0
2025-07-18,155.23594716196223,155.59224319991026,153.32579989964464,154.77078247070312,243100.0
2025-07-21,154.81036123899986,155.05778861889246,153.64251125475573,153.850341796875,205900.0
2025-07-22,154.50355007338754,157.7201059364026,153.6326008840668,157.5320587158203,449900.0
2025-07-23,158.4228252977522,160.18450720404206,157.502387503022,159.9964599609375,450500.0
2025-07-24,159.748340930179,163.04334094404305,158.58713506443337,160.60186767578125,431900.0
2025-07-25,160.8301248100112,161.86228924605192,159.5696808618312,159.77810668945312,296300.0
2025-07-28,159.9865211622613,160.76064829360726,156.96941223290332,157.50534057617188,308500.0
2025-07-29,157.85271506176437,158.39857783036788,156.036489019279,157.62445068359375,388200.0
2025-07-30,157.604589521812,157.73360061087115,153.75379251207275,155.60971069335938,580700.0
2025-07-31,154.6073142621548,156.1655028465139,154.01182489938444,155.9570770263672,679700.0
2025-08-01,155.78836042379552,156.92969738141443,140.02789724626874,140.28594970703125,1012300.0
2025-08-04,142.04262679430818,142.04262679430818,136.04810093172827,138.08267211914062,839000.0
2025-08-05,138.29107880796994,140.00806669326315,136.6535056633714,139.16445922851562,540800.0
2025-08-06,139.2537809781534,139.7003904682946,136.5145629805525,137.49710083007812,515300.0
2025-08-07,138.74761061171503,140.42489098048776,137.8643109975234,139.4324188232422,564000.0
2025-08-08,139.63091429693503,140.98067707589914,139.52174175069808,139.69046020507812,428700.0
2025-08-11,140.26609366892225,140.55390393503043,138.1521230997788,138.81707763671875,349500.0
2025-08-12,139.16444275983682,140.0278886636534,138.1818899029979,138.4300079345703,286100.0
2025-08-13,138.63843411547916,140.37526034113446,138.2017439557153,140.36532592773438,729900.0
2025-08-14,139.13467885374612,139.13467885374612,135.41290813818017,137.29859924316406,875800.0
2025-08-15,137.31844490006762,137.90399982387856,136.832128103183,137.6757354736328,770500.0
2025-08-18,137.84446193662134,138.51935090102052,136.31606142653533,136.85198974609375,529500.0
2025-08-19,137.2291443142154,139.4622069103412,137.2291443142154,138.53919982910156,333100.0
2025-08-20,138.85678922638783,140.18669834070658,138.21167320961604,140.11721801757812,519200.0
2025-08-21,139.571379557282,140.8318084309671,139.18431597945528,139.581298828125,270400.0
2025-08-22,140.1966074830843,142.25103205908528,140.127142308898,140.36532592773438,356500.0
2025-08-25,139.90880407770842,140.54398566556975,137.91394045268862,138.50941467285156,245800.0
2025-08-26,138.0231130894521,139.10490412913347,136.97107985967878,138.65829467773438,442900.0
2025-08-27,138.0429485121284,139.51181820629935,137.98340260580963,138.39031982421875,729100.0
2025-08-28,139.11481500420123,139.11481500420123,136.3656629962245,137.84445190429688,320800.0
2025-08-29,138.12235011895848,138.81707760936152,137.30853081417874,138.2216033935547,370700.0
2025-09-02,136.3855243788287,137.4871690980893,135.1449341609192,135.3831329345703,310600.0
2025-09-03,135.05562942608722,135.15486756754578,133.42797549570034,134.2021026611328,382300.0
2025-09-04,135.3235923742518,137.43754789123142,134.02344105361323,137.41770935058594,401800.0
2025-09-05,137.97349027820903,139.7599432772732,136.59395451802803,137.5764923095703,440800.0
2025-09-08,137.54672141344943,138.9461108789868,136.6435680581942,137.2589111328125,616100.0
2025-09-09,137.21920875563913,138.43002612029278,134.0830079339389,136.01832580566406,637100.0
2025-09-10,135.1052581464342,136.42524811392565,133.83489482239776,135.22434997558594,685100.0
2025-09-11,135.72057605320697,137.23905733793734,134.84719565375582,136.0679473876953,477500.0
2025-09-12,135.59154130836964,136.0183122109246,134.202086345472,134.21200561523438,261300.0
2025-09-15,134.94644868156496,135.14494009636334,133.61653954409925,133.8348846435547,298000.0
2025-09-16,133.77531755009446,134.40057986520893,133.0905244715447,134.19216918945312,474800.0
2025-09-17,134.400575587119,136.0381637069778,133.17983909335013,133.63636779785156,377400.0
2025-09-18,133.88448585084808,134.48989446301076,133.0607472999319,133.4875030517578,254800.0
2025-09-19,133.64632363327092,134.0830138685628,132.33625292739535,133.427978515625,877200.0
2025-09-22,133.11037182482866,133.92420632974697,131.67129010732083,131.72091674804688,402100.0
2025-09-23,132.00872186790292,132.9416481589146,130.97655744324732,131.02618408203125,319700.0
2025-09-24,131.00633744504515,132.30647367393394,130.35130212327795,130.51010131835938,353300.0
2025-09-25,130.51009416312277,131.52242004635977,129.28935759870177,129.83522033691406,388700.0
2025-09-26,130.34137882356993,131.4330891821779,129.97416894722923,131.2941436767578,274400.0
2025-09-29,131.40330307035197,131.68119405336847,130.3711387254224,131.2742919921875,540600.0
2025-09-30,130.71852133224422,132.75307724589,130.71852133224422,132.65383911132812,310400.0
2025-10-01,132.32631845773457,133.34856359842706,131.3139925870956,133.13021850585938,310100.0
2025-10-02,132.65384203252245,133.37834252086736,131.95911449959414,132.1774444580078,398500.0
2025-10-03,131.47279367640735,132.5744384252611,131.43308630777042,132.21714782714844,402000.0
2025-10-06,131.8896290111026,132.19729296764606,130.4207744069965,130.88723754882812,447100.0
2025-10-07,131.11549549226888,131.51247829212605,128.8328065332823,129.60693359375,438800.0
2025-10-08,130.1924917880393,131.01624550512267,129.27941921033712,130.6192626953125,361300.0
2025-10-09,130.70857626358662,131.83999388405067,129.21986807119058,129.6267852783203,554200.0
2025-10-10,129.95430086831624,131.01623815413373,128.91220212112975,129.94436645507812,426000.0
2025-10-13,130.00393866771898,131.35370146275474,129.1801849261088,129.23973083496094,311400.0
2025-10-14,129.0610901520414,130.07341612989566,128.0686178603206,128.82290649414062,337400.0
2025-10-15,128.82289614269973,129.4084511132212,126.89749762844694,127.1356964111328,438300.0
2025-10-16,127.47313242398477,128.52515053818064,126.88756988565696,128.18771362304688,352700.0
2025-10-17,128.18771054309016,129.120636816335,127.88004658998253,128.36634826660156,339700.0
2025-10-20,128.63431403654306,129.1106964210944,127.05628697626972,129.02137756347656,240500.0
2025-10-21,129.6267893910326,130.7780607308871,128.14800042118895,129.58709716796875,311600.0
2025-10-22,129.66648758385847,131.11550366713516,129.001533023481,129.0809326171875,357500.0
2025-10-23,129.24032557401767,131.02342489019046,129.16063186156003,130.266357421875,378600.0
2025-10-24,130.2464294932207,130.38588968926612,128.0449343984807,128.38363647460938,489300.0
2025-10-27,128.6426259346144,129.39969337705932,127.95528098817398,128.2840118408203,521700.0
2025-10-28,128.25413419657656,128.61274830602028,126.9790651852259,127.6066436767578,413500.0
2025-10-29,126.78979272467178,127.00894663290282,122.94465851664737,123.83123016357422,651100.0
2025-10-30,123.5622752273834,125.03657092289914,122.56612661149028,123.88104248046876,702600.0
2025-10-31,114.84597369201094,117.64514884272783,102.8324239362538,115.56320190429688,2758200.0
2025-11-03,115.6428887968913,115.6428887968913,107.87293417806934,112.68433380126952,1661000.0
2025-11-04,113.919556689229,115.5532398165658,112.09660289225816,113.74024963378906,1029100.0
2025-11-05,113.8896710547276,115.5930842456262,112.33567407354856,115.12489318847656,896900.0
2025-11-06,114.57700684246852,116.50953752835608,113.36171195341622,115.7026596069336,880300.0
2025-11-07,115.78235588701804,116.46969325755224,114.24828612088064,115.77239227294922,697200.0
2025-11-10,115.5432729820834,116.32026766733068,113.56093941331017,115.93177032470705,514000.0
2025-11-11,116.50953904136568,119.04972100477184,116.50953904136568,117.81449127197266,484800.0
2025-11-12,117.8842173531296,119.20909676654829,117.45588076684714,117.70491790771484,547500.0
2025-11-13,117.8443842573739,121.41059052496826,117.8443842573739,119.737060546875,679400.0
2025-11-14,119.30871137736264,120.22517384155344,117.93402908109216,118.15318298339844,521200.0
2025-11-17,118.03364629792767,119.02979490478,117.11719140362612,118.88037109375,820200.0
2025-11-18,119.19914484456228,119.64740867350712,117.60530100829024,118.8504867553711,817400.0
2025-11-19,119.04971870763416,119.04971870763416,117.2566482268858,117.5455322265625,598900.0
2025-11-20,117.54553065339864,119.14933045082296,116.91795979354102,118.12329864501952,507400.0
2025-11-21,117.67502837581664,121.76919962522597,117.67502837581664,121.05197143554688,509100.0
2025-11-24,120.38455190510425,121.92858521245564,119.9761349476823,121.00216674804688,740000.0
2025-11-25,121.93855251914646,123.60211884002427,121.93855251914646,122.96458435058594,543600.0
2025-11-26,122.54619448390098,124.04041734800325,122.54619448390098,123.3331527709961,538000.0
2025-11-28,123.1538497021488,125.5944183523718,123.1538497021488,124.26953887939452,315700.0
2025-12-01,124.3990349156279,124.47872862794028,122.5561615184654,122.8051986694336,536800.0
2025-12-02,123.29330872615562,123.38296605205076,120.33475377180817,121.13166809082033,325400.0
2025-12-03,120.98224589440564,123.78142866229516,120.94240663793282,121.58989715576172,543100.0
2025-12-04,121.72935588012562,123.60212011213446,121.46039910213004,121.550048828125,708000.0
2025-12-05,121.52016157322772,123.0343116512343,120.15544290029952,121.4404754638672,537000.0
2025-12-08,120.45428397361296,121.62973959717333,118.84052814466452,119.60755920410156,496600.0
2025-12-09,119.13936863432367,119.38840577929513,114.9157007836114,115.2743148803711,640300.0
2025-12-10,115.72257853337636,117.34630558024035,114.68658309979747,116.7187271118164,734700.0
2025-12-11,117.50568574674746,118.21295032752096,116.70877144165544,117.55549621582033,389700.0
2025-12-12,118.06352393728298,121.17151017917278,117.196879554456,121.00216674804688,656400.0
2025-12-15,121.01213143800062,121.9883527790652,120.0159828695614,121.85885620117188,588600.0
2025-12-16,122.19754617074564,123.37300181536564,119.0596765804455,122.35693359375,644800.0
2025-12-17,121.63970423659477,124.12011208349313,119.6175238264721,123.15384674072266,567300.0
2025-12-18,123.19369468787345,123.64196611478646,121.56001160314788,122.14774322509766,457100.0
2025-12-19,122.86496444856807,123.85115703275032,120.79298114041153,120.92247772216795,1300400.0
2025-12-22,120.92247390417072,123.22357466125312,120.60370666682594,122.26727294921876,527800.0
2025-12-23,122.39677984292548,122.55615966512936,120.8527464902678,121.71939849853516,311700.0
2025-12-24,122.0580830371269,122.69561751377476,121.29105198241356,122.27723693847656,198000.0
2025-12-26,121.89870630347777,123.00443185190434,121.25120819673984,122.77531433105467,306000.0
2025-12-29,122.81515971406309,123.83122792475147,121.84889437252,122.73546600341795,400200.0
2025-12-30,122.32704703122806,123.82126988128373,121.94850571187396,122.26727294921876,289800.0
2025-12-31,121.05197234327426,122.85500644474074,120.8826289083331,121.4902801513672,314300.0
2026-01-02,121.27112467453804,122.52627399961013,120.31482296020086,122.06804656982422,295100.0
2026-01-05,121.29105352059696,124.10019221895458,121.29105352059696,122.52627563476562,435700.0
2026-01-06,121.74928292899573,122.37685381006916,119.64740877808522,120.09567260742188,777200.0
2026-01-07,120.20524516718837,121.48031411070212,117.15703299910017,119.97613525390624,478500.0
2026-01-08,119.45813846313784,122.89485569818288,119.0596775025515,121.96843719482422,330000.0
2026-01-09,121.60982144195128,124.48869025314993,120.99220658141331,123.3730010986328,429100.0
2026-01-12,123.5224261097117,124.81742232667264,122.50635788410425,124.6480712890625,477300.0
2026-01-13,124.56838640898675,124.95688375791435,122.06805127613652,123.02435302734376,351900.0
2026-01-14,123.63200512032016,126.67026143373172,123.63200512032016,126.3614501953125,611700.0
2026-01-15,126.65033136548588,126.73002507684,124.04041931871804,124.6281509399414,381000.0
2026-01-16,123.52242596027686,124.71780123601722,122.76535089896896,124.2296905517578,363400.0
2026-01-20,124.41895904968524,125.0465299185149,122.9645830361994,123.3431167602539,275100.0
2026-01-21,123.8312253817379,125.13618516671866,123.4228084230874,124.52853393554688,421000.0
2026-01-22,124.56838384921164,125.9231465355853,123.58219127603556,123.99061584472656,369700.0
2026-01-23,123.8611143925338,125.79364512595792,123.39293093032236,125.51472473144533,429500.0
2026-01-26,125.93310290002078,126.50090729221316,124.61818706546948,125.86337280273438,315400.0
2026-01-27,124.46876518523668,125.8135718823247,123.69177048914806,124.25957489013672,303100.0
2026-01-28,123.7216537092716,124.58830573168342,122.77531557446258,123.22357940673828,347800.0
2026-01-29,123.81130890933784,124.7974938834136,122.1178517498024,123.3730010986328,386000.0
2026-01-30,122.43662879089985,124.52853934314632,122.18759163944166,124.46876525878906,512700.0
2026-02-02,123.72164944172177,125.42507018563876,123.72164944172177,124.34922790527344,489100.0
2026-02-03,123.43277330805162,127.43728722684573,123.21361940602614,124.14999389648438,658700.0
2026-02-04,125.70999908447266,130.4199981689453,124.6999969482422,129.22999572753906,589400.0
2026-02-05,127.66999816894533,129.0800018310547,121.95999908447266,123.9800033569336,2144200.0
2026-02-06,127.52999877929688,135.99000549316406,127.52999877929688,134.30999755859375,1045700.0
2026-02-09,133.5800018310547,139.57000732421875,133.25,138.47000122070312,1043400.0
2026-02-10,137.80999755859375,140.92999267578125,137.80999755859375,140.1699981689453,622100.0
2026-02-11,139.02999877929688,140.5500030517578,138.60000610351562,140.00999450683594,584300.0
2026-02-12,140.16000366210938,142.0,139.38999938964844,140.50999450683594,572700.0
2026-02-13,140.50999450683594,142.92999267578125,140.41000366210938,142.5800018310547,471900.0
2026-02-17,139.25999450683594,143.6199951171875,139.25999450683594,141.64999389648438,614700.0
2026-02-18,141.47000122070312,143.11000061035156,140.83999633789062,141.72000122070312,582000.0
2026-02-19,141.64999389648438,143.32000732421875,141.02999877929688,143.16000366210938,525500.0
2026-02-20,143.1199951171875,145.13999938964844,142.0,145.0500030517578,664500.0
2026-02-23,143.49000549316406,146.24000549316406,143.1300048828125,145.72000122070312,513500.0
2026-02-24,146.07000732421875,146.91000366210938,143.85000610351562,144.13999938964844,429800.0
2026-02-25,142.41000366210938,143.66000366210938,140.42999267578125,142.67999267578125,348900.0
2026-02-26,143.52000427246094,143.9199981689453,141.0,141.7899932861328,331300.0
2026-02-27,141.52999877929688,144.00999450683594,141.0,143.7100067138672,344600.0
2026-03-02,143.0,143.35000610351562,141.6199951171875,142.6699981689453,335000.0
2026-03-03,140.63999938964844,141.32000732421875,136.9199981689453,139.75999450683594,347300.0
2026-03-04,139.33999633789062,139.50999450683594,136.00999450683594,137.0399932861328,389000.0
2026-03-05,136.0,136.33999633789062,134.41000366210938,134.72999572753906,452300.0
2026-03-06,134.0,134.0,131.0,132.0800018310547,398500.0
2026-03-09,130.97000122070312,133.97999572753906,127.52999877929688,133.75,545700.0
2026-03-10,133.35000610351562,134.1300048828125,131.39999389648438,132.1300048828125,503100.0
2026-03-11,131.8000030517578,133.27999877929688,130.0399932861328,132.02000427246094,563800.0
2026-03-12,131.27000427246094,132.7899932861328,128.63999938964844,128.86000061035156,620600.0
2026-03-13,130.14999389648438,130.14999389648438,127.0500030517578,128.64999389648438,660600.0
2026-03-16,129.47999572753906,131.41000366210938,126.0,129.0500030517578,370700.0
2026-03-17,129.97000122070312,131.02000427246094,128.24000549316406,129.5,276700.0
2026-03-18,124.37999725341795,126.58000183105467,121.41999816894533,124.22000122070312,910500.0
2026-03-19,123.01000213623048,124.81999969482422,121.4499969482422,123.97000122070312,518500.0
2026-03-20,124.26000213623048,124.26000213623048,120.30999755859376,121.05999755859376,1481500.0
2026-03-23,123.51000213623048,126.33999633789062,122.98999786376952,124.13999938964844,455200.0
2026-03-24,123.16000366210938,125.22000122070312,122.87000274658205,124.1500015258789,405000.0
2026-03-25,125.44000244140624,126.56999969482422,123.70999908447266,125.81999969482422,337200.0
2026-03-26,125.22000122070312,127.33999633789062,124.12000274658205,124.69000244140624,442100.0
2026-03-27,123.94000244140624,124.20999908447266,121.76000213623048,121.98999786376952,381400.0
2026-03-30,122.55999755859376,123.94000244140624,121.0999984741211,123.36000061035156,562000.0
2026-03-31,124.38999938964844,126.95999908447266,123.58999633789062,126.0199966430664,557800.0
2026-04-01,127.33999633789062,128.63999938964844,126.33000183105467,126.75,380200.0
2026-04-02,125.13999938964844,127.08999633789062,124.25,126.01000213623048,297500.0
2026-04-06,124.58999633789062,126.19000244140624,124.58999633789062,126.01000213623048,461100.0
2026-04-07,125.31999969482422,127.16999816894533,124.8000030517578,125.61000061035156,376900.0
2026-04-08,131.3800048828125,132.6699981689453,128.14999389648438,132.02000427246094,645200.0
2026-04-09,131.22000122070312,132.44000244140625,127.33999633789062,131.39999389648438,424100.0
2026-04-10,132.25,132.6999969482422,130.85000610351562,131.5,407400.0
